NORMALIZED_TIME, INERTIAL_X, INERTIAL_Y, INERTIAL_Z, ASTEROID_X, ASTEROID_Y, ASTEROID_Z, RADIUS
0.000000000000000000e+00,2.999212549723841548e+00,-5.948479629652981507e-06,-9.365754384453604659e-06,2.999212528674034317e+00,-3.553886253929128508e-04,-9.365754384453604659e-06,2.999212549744363798e+00
6.667555674089879270e-05,2.996892154281117548e+00,-2.340643650205774447e-05,-3.696402065532845453e-05,2.996892067462933795e+00,-7.217460212609100225e-04,-3.696402065532845453e-05,2.996892154600481639e+00
1.333511134817975854e-04,2.993100708658462672e+00,-2.348098269108474749e-05,-7.004365310710422587e-05,2.993100517613747957e+00,-1.069665116360078065e-03,-7.004365310710422587e-05,2.993100709570137408e+00
2.000266702226963646e-04,2.987876026407451313e+00,-1.283515967765196315e-04,-3.429865927282918216e-05,2.987875642113343222e+00,-1.520828816869472348e-03,-3.429865927282918216e-05,2.987876029361142827e+00
2.667022269635951708e-04,2.981255524586058137e+00,-4.874155971067717905e-04,1.293609739049732905e-04,2.981254734768966408e+00,-2.224155227492748826e-03,1.293609739049732905e-04,2.981255567237253601e+00
3.333777837044939229e-04,2.973299413585015927e+00,-1.090315643176250227e-03,4.157870709958027514e-04,2.973297924873818499e+00,-3.168841151983480854e-03,4.157870709958027514e-04,2.973299642567511114e+00
4.000533404453927291e-04,2.964066643260749423e+00,-1.926894219984187726e-03,8.199299979852193694e-04,2.964064085943649562e+00,-4.344310235133035103e-03,8.199299979852193694e-04,2.964067382988717636e+00
4.667288971862914812e-04,2.953614903002178771e+00,-2.987199679818281373e-03,1.336841173865398061e-03,2.953610835653994737e+00,-5.740218271605567954e-03,1.336841173865398061e-03,2.953616716119886298e+00
5.334044539271903416e-04,2.942000623660706360e+00,-4.261486363909116476e-03,1.961673183173221098e-03,2.941994537642831808e+00,-7.346452596600955981e-03,1.961673183173221098e-03,2.942004364042937858e+00
6.000800106680890394e-04,2.929278980439075308e+00,-5.740214549899724274e-03,2.689679800852472821e-03,2.929270304272479475e+00,-9.153131304755727712e-03,2.689679800852472821e-03,2.929285839532000502e+00
6.667555674089878457e-04,2.915503896711727272e+00,-7.414050229930416874e-03,3.516215931842542417e-03,2.915492000323506527e+00,-1.115060230282931449e-02,3.516215931842542417e-03,2.915515443906369963e+00
7.334311241498866520e-04,2.900728048703917761e+00,-9.273864731656474708e-03,4.436737471497922795e-03,2.900712247548021150e+00,-1.332944220915145694e-02,4.436737471497922795e-03,2.900746266350107572e+00
8.001066808907854582e-04,2.885002871041473238e+00,-1.131073418063209372e-02,5.446801086119559647e-03,2.884982430094356509e+00,-1.568045509898284562e-02,5.446801086119559647e-03,2.885030184637124240e+00
8.667822376316842645e-04,2.868378563077690124e+00,-1.351593881885248920e-02,6.542063920805566216e-03,2.868352700709755343e+00,-1.819467111113884719e-02,6.542063920805566216e-03,2.868417867104814167e+00
9.334577943725829623e-04,2.850904096118080933e+00,-1.588096216582068204e-02,7.718283228663789554e-03,2.850871987841898658e+00,-2.086334490308803385e-02,7.718283228663789554e-03,2.850958775941553558e+00
1.000133351113481877e-03,2.832627221227489667e+00,-1.839749006200276302e-02,8.971315939555831245e-03,2.832588003323848191e+00,-2.367795399453389432e-02,8.971315939555831245e-03,2.832701171424412578e+00
1.066808907854380683e-03,2.813594477268737570e+00,-2.105740964445217828e-02,1.029711819191101232e-02,2.813547250291561053e+00,-2.663019704904067558e-02,1.029711819191101232e-02,2.813692116714466174e+00
1.133484464595279273e-03,2.793851200703758586e+00,-2.385280806137425602e-02,1.169174473958572123e-02,2.793795032865394212e+00,-2.971199190387512415e-02,1.169174473958572123e-02,2.793977484701926084e+00
1.200160021336178079e-03,2.773441535949101144e+00,-2.677597106883846528e-02,1.315134829756068637e-02,2.773375466387361765e+00,-3.291547349003490219e-02,1.315134829756068637e-02,2.773601965660616120e+00
1.266835578077076885e-03,2.752408444249589081e+00,-2.981938180006746611e-02,1.467217896400221586e-02,2.752331486177361342e+00,-3.623299192860014034e-02,1.467217896400221586e-02,2.752609073650476024e+00
1.333511134817975691e-03,2.730793715393705412e+00,-3.297571912350384660e-02,1.625058344678829980e-02,2.730704859133215923e+00,-3.965711022898070481e-02,1.625058344678829980e-02,2.731041155960091338e+00
1.400186691558874498e-03,2.708637979488925485e+00,-3.623785596254492508e-02,1.788300426777415103e-02,2.708536195392121648e+00,-4.318060195713701449e-02,1.788300426777415103e-02,2.708939402787787110e+00
1.466862248299773304e-03,2.685980719122982308e+00,-3.959885753295123989e-02,1.956597892431147234e-02,2.685864960379646948e+00,-4.679644883070321892e-02,1.956597892431147234e-02,2.686343857466797935e+00
1.533537805040672110e-03,2.662860280934552293e+00,-4.305197964466874611e-02,2.129613907853543722e-02,2.662729486269413304e+00,-5.049783838533700164e-02,2.129613907853543722e-02,2.663293426243120265e+00
1.600213361781570916e-03,2.639313888435011357e+00,-4.659066680248558773e-02,2.307020964826419010e-02,2.639166984695828777e+00,-5.427816145160113681e-02,2.307020964826419010e-02,2.639825889427606764e+00
1.666888918522469723e-03,2.615377657433511249e+00,-5.020854991306639148e-02,2.488500770843581414e-02,2.615213562072849829e+00,-5.813100925503829342e-02,2.488500770843581414e-02,2.615977915253762998e+00
1.733564475263368529e-03,2.591086610632089116e+00,-5.389944408952450361e-02,2.673744143586061217e-02,2.590904234084277835e+00,-6.205017062192146743e-02,2.673744143586061217e-02,2.591785073003659345e+00
1.800240032004267335e-03,2.566474688193601139e+00,-5.765734701121365963e-02,2.862450931423838815e-02,2.566272936146810846e+00,-6.602962973725234885e-02,2.862450931423838815e-02,2.567281842209050424e+00
1.866915588745165925e-03,2.541574762814139188e+00,-6.147643662190376002e-02,3.054329902325176802e-02,2.541352538381140391e+00,-7.006356326372099874e-02,3.054329902325176802e-02,2.542501626420069716e+00
1.933591145486064731e-03,2.516418654966582569e+00,-6.535106985385727429e-02,3.249098657117809735e-02,2.516174860752379949e+00,-7.414633849766233409e-02,3.249098657117809735e-02,2.517476767242000868e+00
2.000266702226963754e-03,2.491037158934371387e+00,-6.927582966075356008e-02,3.446485004183730966e-02,2.490770698827242668e+00,-7.827255988314037183e-02,3.446485004183730966e-02,2.492238570774358397e+00
2.066942258967862343e-03,2.465460025597986604e+00,-7.324544695283648210e-02,3.646225252558452784e-02,2.465169806717895096e+00,-8.243699028592640921e-02,3.646225252558452784e-02,2.466817287352305321e+00
2.133617815708761366e-03,2.439715991620116764e+00,-7.725478777791108809e-02,3.848062724763025300e-02,2.439400926228122657e+00,-8.663453767936701855e-02,3.848062724763025300e-02,2.441242138886454249e+00
2.200293372449659956e-03,2.413832815127666009e+00,-8.129889032965430251e-02,4.051747776346298346e-02,2.413491822307996415e+00,-9.086029170331812177e-02,4.051747776346298346e-02,2.415541354429747489e+00
2.266968929190558545e-03,2.387837284938699067e+00,-8.537296739082397834e-02,4.257039756608310688e-02,2.387469292168884039e+00,-9.510952557519671002e-02,4.257039756608310688e-02,2.389742178908316195e+00
2.333644485931457568e-03,2.361755224413853327e+00,-8.947240303241177362e-02,4.463706763792440330e-02,2.361359169045530670e+00,-9.937769224088827125e-02,4.463706763792440330e-02,2.363870876075475636e+00
2.400320042672356158e-03,2.335611528623628974e+00,-9.359272892067163618e-02,4.671524838703717403e-02,2.335186359364111119e+00,-1.036604002800062402e-01,4.671524838703717403e-02,2.337952763846670390e+00
2.466995599413255181e-03,2.309430145190096262e+00,-9.772962331993761964e-02,4.880277793100335632e-02,2.308974823501413809e+00,-1.079534122833629428e-01,4.880277793100335632e-02,2.312012194154863920e+00
2.533671156154153770e-03,2.283234057784317983e+00,-1.018789147086043567e-01,5.089757331355308778e-02,2.282747559179695962e+00,-1.122526478422029295e-01,5.089757331355308778e-02,2.286072535782198933e+00
2.600346712895052793e-03,2.257045434558393904e+00,-1.060365959444037193e-01,5.299760860307467514e-02,2.256526749742926885e+00,-1.165541978437031889e-01,5.299760860307467514e-02,2.260156321995894668e+00
2.667022269635951383e-03,2.230885574986869901e+00,-1.101987874806308609e-01,5.510093382912597398e-02,2.230333711077873815e+00,-1.208542869587073132e-01,5.510093382912597398e-02,2.234285195393717061e+00
2.733697826376850406e-03,2.204774908346878171e+00,-1.143617844456912697e-01,5.720568381806617059e-02,2.204188889788988526e+00,-1.251493202073969968e-01,5.720568381806617059e-02,2.208479908099387767e+00
2.800373383117748995e-03,2.178733030350775479e+00,-1.185220350898215647e-01,5.931006747784493827e-02,2.178111899836423948e+00,-1.294358610828889034e-01,5.931006747784493827e-02,2.182760356623588027e+00
2.867048939858648018e-03,2.152778714190505926e+00,-1.226761520588269538e-01,6.141235780654712845e-02,2.152121533432944211e+00,-1.337106423958893398e-01,6.141235780654712845e-02,2.157145592732916839e+00
2.933724496599546608e-03,2.126929933458776123e+00,-1.268208481917865726e-01,6.351091488981326638e-02,2.126235784205446677e+00,-1.379705017142724421e-01,6.351091488981326638e-02,2.131653842838742818e+00
3.000400053340445197e-03,2.101203856579603180e+00,-1.309529724320118993e-01,6.560415548436904221e-02,2.100471841374679016e+00,-1.422124167780068615e-01,6.560415548436904221e-02,2.106302502754671568e+00
3.067075610081344220e-03,2.075616849049521928e+00,-1.350695030643837558e-01,6.769056662492001220e-02,2.074846091954258398e+00,-1.464334982798227158e-01,6.769056662492001220e-02,2.081108139315765548e+00
3.133751166822242810e-03,2.050184517935084383e+00,-1.391675596912604340e-01,6.976868955413172146e-02,2.049374165105405154e+00,-1.506310016220392123e-01,6.976868955413172146e-02,2.056086534485656259e+00
3.200426723563141833e-03,2.024921783967282618e+00,-1.432443989038878485e-01,7.183714081453218547e-02,2.024071004172854682e+00,-1.548023225577436213e-01,7.183714081453218547e-02,2.031252757241940543e+00
3.267102280304040422e-03,1.999842819418393258e+00,-1.472973942371956224e-01,7.389459581657965848e-02,1.998950804599909370e+00,-1.589449763841253027e-01,7.389459581657965848e-02,2.006621099265945674e+00
3.333777837044939445e-03,1.974961104697520620e+00,-1.513240351526549399e-01,7.593978412888391372e-02,1.974027070461443767e+00,-1.630565968255906217e-01,7.593978412888391372e-02,1.982205130529248294e+00
3.400453393785838035e-03,1.950289424259695759e+00,-1.553219428320765649e-01,7.797150649758441410e-02,1.949312610210345964e+00,-1.671349513993835856e-01,7.797150649758441410e-02,1.958017696582400546e+00
3.467128950526737058e-03,1.925839883633453375e+00,-1.592888765374234350e-01,7.998861297644904722e-02,1.924819553589417032e+00,-1.711779474748576502e-01,7.998861297644904722e-02,1.934070935045497208e+00
3.533804507267635647e-03,1.901623927605274655e+00,-1.632226787531161905e-01,8.199002108502601027e-02,1.900559370080881383e+00,-1.751835771355796378e-01,8.199002108502601027e-02,1.910376289754920798e+00
3.600480064008534670e-03,1.877652345452218929e+00,-1.671213202510062890e-01,8.397470490148015165e-02,1.876542873802450551e+00,-1.791499618919816517e-01,8.397470490148015165e-02,1.886944518826123129e+00
3.667155620749433260e-03,1.853935313289762465e+00,-1.709828728543204002e-01,8.594168738241557415e-02,1.852780265958145156e+00,-1.830753253401205816e-01,8.594168738241557415e-02,1.863785734010876771e+00
3.733831177490331849e-03,1.830482391865872582e+00,-1.748055170595751440e-01,8.789003888433219447e-02,1.829281132523817632e+00,-1.869580004114585192e-01,8.789003888433219447e-02,1.840909398819116305e+00
3.800506734231230872e-03,1.807302577013522038e+00,-1.785875186141973048e-01,8.981890063035466443e-02,1.806054494794503418e+00,-1.907964059333021600e-01,8.981890063035466443e-02,1.818324377440653228e+00
3.867182290972129462e-03,1.784404274597313655e+00,-1.823272603992447394e-01,9.172744855479411652e-02,1.783108784063755836e+00,-1.945890780093618710e-01,9.172744855479411652e-02,1.796038911021760720e+00
3.933857847713028051e-03,1.761795325947660418e+00,-1.860232206912036390e-01,9.361490592996643545e-02,1.760451867142090787e+00,-1.983346481159503349e-01,9.361490592996643545e-02,1.774060641516976844e+00
4.000533404453927508e-03,1.739483017212404725e+00,-1.896739766393862048e-01,9.548054456345607399e-02,1.738091055629259030e+00,-2.020318463167072032e-01,9.548054456345607399e-02,1.752396621480052818e+00
4.067208961194826097e-03,1.717474100987405494e+00,-1.932782076753197242e-01,9.732367458840215924e-02,1.716033127463294949e+00,-2.056795045045169967e-01,9.732367458840215924e-02,1.731053335619694211e+00
4.133884517935724687e-03,1.695774823570238121e+00,-1.968346762539822659e-01,9.914366064322382988e-02,1.694284354256532454e+00,-2.092765370322418050e-01,9.914366064322382988e-02,1.710036726937881113e+00
4.200560074676623276e-03,1.674390932890169159e+00,-2.003422246973020626e-01,1.009399165409220617e-01,1.672850509201794900e+00,-2.128219373203115439e-01,1.009399165409220617e-01,1.689352204216978404e+00
4.267235631417522733e-03,1.653327694725888808e+00,-2.037997721363990211e-01,1.027118932625921688e-01,1.651736883267626688e+00,-2.163147746313615338e-01,1.027118932625921688e-01,1.669004657359606236e+00
4.333911188158421322e-03,1.632589903415607280e+00,-2.072063328661986059e-01,1.044590810419411264e-01,1.630948295723548824e+00,-2.197542122255948527e-01,1.044590810419411264e-01,1.648998470807831573e+00
4.400586744899319912e-03,1.612181892850642395e+00,-2.105609995772362852e-01,1.061810134692757202e-01,1.610489105210181959e+00,-2.231394904039910865e-01,1.061810134692757202e-01,1.629337533416513439e+00
4.467262301640218501e-03,1.592107553106411721e+00,-2.138629339108551741e-01,1.078772637748205421e-01,1.590363226400333119e+00,-2.264699169270996126e-01,1.078772637748205421e-01,1.610025254211556289e+00
4.533937858381117091e-03,1.572370357622540515e+00,-2.171113828949456648e-01,1.095474389897695411e-01,1.570574157007402771e+00,-2.297448834100077053e-01,1.095474389897695411e-01,1.591064591869798761e+00
4.600613415122016547e-03,1.552973366373749942e+00,-2.203056737600352921e-01,1.111911851954336672e-01,1.551124980950140619e+00,-2.329638599214604588e-01,1.111911851954336672e-01,1.572458058652835833e+00
4.667288971862915137e-03,1.533919237390511281e+00,-2.234451969339564803e-01,1.128081893859514961e-01,1.532018379968362209e+00,-2.361263778332633456e-01,1.128081893859514961e-01,1.554207730794722186e+00
4.733964528603813726e-03,1.515210245039565029e+00,-2.265294057012245676e-01,1.143981691995306221e-01,1.513256651870399372e+00,-2.392320293986513469e-01,1.143981691995306221e-01,1.536315266941135738e+00
4.800640085344712316e-03,1.496848293044018341e+00,-2.295578305054187529e-01,1.159608723514988365e-01,1.494841723395994082e+00,-2.422804819411593646e-01,1.159608723514988365e-01,1.518781924389300375e+00
4.867315642085611772e-03,1.478834922209631531e+00,-2.325300618010174847e-01,1.174960807443093946e-01,1.476775158046732983e+00,-2.452714605574779216e-01,1.174960807443093946e-01,1.501608566097778041e+00
4.933991198826510362e-03,1.461171324116765424e+00,-2.354457556616869063e-01,1.190036116802210414e-01,1.459058169695085061e+00,-2.482047536335125482e-01,1.190036116802210414e-01,1.484795676809836706e+00
5.000666755567408951e-03,1.443858356733524584e+00,-2.383046322006033280e-01,1.204833131708535343e-01,1.441691638174272150e+00,-2.510802111992948005e-01,1.204833131708535343e-01,1.468343379727686360e+00
5.067342312308307541e-03,1.426896544202193029e+00,-2.411064537378871941e-01,1.219350603051601173e-01,1.424676109224842779e+00,-2.538977229007474135e-01,1.219350603051601173e-01,1.452251434436146127e+00
5.134017869049206130e-03,1.410286100108945728e+00,-2.438510445752603562e-01,1.233587530346366284e-01,1.408011817560768320e+00,-2.566572377903388325e-01,1.233587530346366284e-01,1.436519264768560511e+00
5.200693425790105587e-03,1.394026950802395692e+00,-2.465382921475002820e-01,1.247543218534455101e-01,1.391698710141879625e+00,-2.593587655119059532e-01,1.247543218534455101e-01,1.421145984717806732e+00
5.267368982531004176e-03,1.378118736475002271e+00,-2.491681424417755697e-01,1.261217195728675244e-01,1.375736447262666529e+00,-2.620023715626210170e-01,1.261217195728675244e-01,1.406130400489001175e+00
5.334044539271902766e-03,1.362560816913372497e+00,-2.517405846572066119e-01,1.274609267584037309e-01,1.360124408414559394e+00,-2.645881618404986035e-01,1.274609267584037309e-01,1.391471016443138309e+00
5.400720096012801355e-03,1.347352283786813931e+00,-2.542556501294157001e-01,1.287719443124757390e-01,1.344861704560620819e+00,-2.671162815228153020e-01,1.287719443124757390e-01,1.377166048772002771e+00
5.467395652753700812e-03,1.332484487964763042e+00,-2.567379198637050330e-01,1.300486681931181665e-01,1.329939468785900747e+00,-2.696113490343742258e-01,1.300486681931181665e-01,1.363210154840941213e+00
5.534071209494599401e-03,1.317940525788136696e+00,-2.592382400637647799e-01,1.312784591858316141e-01,1.315340311547142704e+00,-2.721241618179719990e-01,1.312784591858316141e-01,1.349594653394964539e+00
5.600746766235497991e-03,1.303719192218173450e+00,-2.617554485634515093e-01,1.324617111938407865e-01,1.301063032557489008e+00,-2.746536588559683190e-01,1.324617111938407865e-01,1.336317983094989614e+00
5.667422322976396580e-03,1.289819576931526823e+00,-2.642867197114481259e-01,1.335992806529378574e-01,1.287106743419243582e+00,-2.771971181242147142e-01,1.335992806529378574e-01,1.323378547144634210e+00
5.734097879717296037e-03,1.276240540427881598e+00,-2.668293220558731194e-01,1.346920272376502525e-01,1.273470326909520889e+00,-2.797519090576608414e-01,1.346920272376502525e-01,1.310774483403547297e+00
5.800773436458194626e-03,1.262980726472844983e+00,-2.693806199992461181e-01,1.357408069690144714e-01,1.260152449352123671e+00,-2.823154941991262712e-01,1.357408069690144714e-01,1.298503677526426259e+00
5.867448993199093216e-03,1.250038571212027882e+00,-2.719380729267155128e-01,1.367464789628149990e-01,1.247151569685787997e+00,-2.848854282956202466e-01,1.367464789628149990e-01,1.286563773986206805e+00
5.934124549939991805e-03,1.237412312149990701e+00,-2.744992344676362994e-01,1.377099050172931050e-01,1.234465948396491930e+00,-2.874593575329461026e-01,1.377099050172931050e-01,1.274952186524489273e+00
6.000800106680890394e-03,1.225099994798446223e+00,-2.770617520014867496e-01,1.386319460032341966e-01,1.222093654117052841e+00,-2.900350189961817815e-01,1.386319460032341966e-01,1.263666106267763212e+00
6.067475663421789851e-03,1.213099480055205959e+00,-2.796233655178171351e-01,1.395134619348407101e-01,1.210032570964685972e+00,-2.926102394966956788e-01,1.395134619348407101e-01,1.252702511019581966e+00
6.134151220162688441e-03,1.201408459283309638e+00,-2.821819032745604416e-01,1.403553151172618751e-01,1.198280413613767248e+00,-2.951829312862927490e-01,1.403553151172618751e-01,1.242058181831598107e+00
6.200826776903587030e-03,1.190024459990503214e+00,-2.847352801151474266e-01,1.411583661598015682e-01,1.186834732943344406e+00,-2.977510903376189288e-01,1.411583661598015682e-01,1.231729710388949295e+00
6.267502333644485620e-03,1.178944845118497620e+00,-2.872814981438936432e-01,1.419234725616350945e-01,1.175692915269888950e+00,-3.003127969159292143e-01,1.419234725616350945e-01,1.221713501223274267e+00
6.334177890385385076e-03,1.168166834390561792e+00,-2.898186398453977963e-01,1.426514890794648160e-01,1.164852203721079782e+00,-3.028662088415385312e-01,1.426514890794648160e-01,1.212005793842789725e+00
6.400853447126283666e-03,1.157687509052806707e+00,-2.923448733763506224e-01,1.433432691194009290e-01,1.154309702871450405e+00,-3.054095667511920187e-01,1.433432691194009290e-01,1.202602671878024720e+00
6.467529003867182255e-03,1.147503821306169902e+00,-2.948584470668402235e-01,1.439996634997337266e-01,1.144062388187925938e+00,-3.079411886264491471e-01,1.439996634997337266e-01,1.193500074070784178e+00
